# energy [kcal/mol] of hf vs. time [ps] (0.0000 ps of eq)
#
#  time      e_total      e_kin      e_pot  e_nonbond   e_bonded e_boundary      e_vdw     e_elst     e_bond    e_angle     e_tors      e_oop     temp    press
 0.0000  4.64250e+00  5.962e-13  4.642e+00  0.000e+00  4.642e+00  0.000e+00  0.000e+00  0.000e+00  4.642e+00  0.000e+00  0.000e+00  0.000e+00    0.000 -309.246
 0.0002  4.64214e+00  2.416e-01  4.401e+00  0.000e+00  4.401e+00  0.000e+00  0.000e+00  0.000e+00  4.401e+00  0.000e+00  0.000e+00  0.000e+00   40.527 -299.221
 0.0004  4.64154e+00  6.502e-01  3.991e+00  0.000e+00  3.991e+00  0.000e+00  0.000e+00  0.000e+00  3.991e+00  0.000e+00  0.000e+00  0.000e+00  109.068 -280.323
 0.0006  4.64071e+00  1.215e+00  3.426e+00  0.000e+00  3.426e+00  0.000e+00  0.000e+00  0.000e+00  3.426e+00  0.000e+00  0.000e+00  0.000e+00  203.783 -252.413
 0.0008  4.63972e+00  1.883e+00  2.757e+00  0.000e+00  2.757e+00  0.000e+00  0.000e+00  0.000e+00  2.757e+00  0.000e+00  0.000e+00  0.000e+00  315.810 -216.750
 0.0010  4.63867e+00  2.591e+00  2.047e+00  0.000e+00  2.047e+00  0.000e+00  0.000e+00  0.000e+00  2.047e+00  0.000e+00  0.000e+00  0.000e+00  434.667 -174.913
 0.0012  4.63767e+00  3.274e+00  1.363e+00  0.000e+00  1.363e+00  0.000e+00  0.000e+00  0.000e+00  1.363e+00  0.000e+00  0.000e+00  0.000e+00  549.231 -128.702
 0.0014  4.63679e+00  3.868e+00  7.690e-01  0.000e+00  7.690e-01  0.000e+00  0.000e+00  0.000e+00  7.690e-01  0.000e+00  0.000e+00  0.000e+00  648.782  -80.015
 0.0016  4.63613e+00  4.316e+00  3.199e-01  0.000e+00  3.199e-01  0.000e+00  0.000e+00  0.000e+00  3.199e-01  0.000e+00  0.000e+00  0.000e+00  724.005  -30.726
 0.0018  4.63574e+00  4.578e+00  5.805e-02  0.000e+00  5.805e-02  0.000e+00  0.000e+00  0.000e+00  5.805e-02  0.000e+00  0.000e+00  0.000e+00  767.861   17.421
 0.0020  4.63567e+00  4.628e+00  7.988e-03  0.000e+00  7.988e-03  0.000e+00  0.000e+00  0.000e+00  7.988e-03  0.000e+00  0.000e+00  0.000e+00  776.247   62.914
 0.0022  4.63592e+00  4.462e+00  1.744e-01  0.000e+00  1.744e-01  0.000e+00  0.000e+00  0.000e+00  1.744e-01  0.000e+00  0.000e+00  0.000e+00  748.377  104.541
 0.0024  4.63646e+00  4.095e+00  5.417e-01  0.000e+00  5.417e-01  0.000e+00  0.000e+00  0.000e+00  5.417e-01  0.000e+00  0.000e+00  0.000e+00  686.861  141.433
 0.0026  4.63724e+00  3.562e+00  1.075e+00  0.000e+00  1.075e+00  0.000e+00  0.000e+00  0.000e+00  1.075e+00  0.000e+00  0.000e+00  0.000e+00  597.452  173.073
 0.0028  4.63820e+00  2.912e+00  1.726e+00  0.000e+00  1.726e+00  0.000e+00  0.000e+00  0.000e+00  1.726e+00  0.000e+00  0.000e+00  0.000e+00  488.519  199.275
 0.0030  4.63924e+00  2.207e+00  2.432e+00  0.000e+00  2.432e+00  0.000e+00  0.000e+00  0.000e+00  2.432e+00  0.000e+00  0.000e+00  0.000e+00  370.255  220.137
 0.0032  4.64027e+00  1.513e+00  3.128e+00  0.000e+00  3.128e+00  0.000e+00  0.000e+00  0.000e+00  3.128e+00  0.000e+00  0.000e+00  0.000e+00  253.725  235.974
 0.0034  4.64118e+00  8.932e-01  3.748e+00  0.000e+00  3.748e+00  0.000e+00  0.000e+00  0.000e+00  3.748e+00  0.000e+00  0.000e+00  0.000e+00  149.833  247.230
 0.0036  4.64190e+00  4.072e-01  4.235e+00  0.000e+00  4.235e+00  0.000e+00  0.000e+00  0.000e+00  4.235e+00  0.000e+00  0.000e+00  0.000e+00   68.302  254.395
 0.0038  4.64235e+00  9.992e-02  4.542e+00  0.000e+00  4.542e+00  0.000e+00  0.000e+00  0.000e+00  4.542e+00  0.000e+00  0.000e+00  0.000e+00   16.760  257.924
 0.0040  4.64250e+00  1.786e-04  4.642e+00  0.000e+00  4.642e+00  0.000e+00  0.000e+00  0.000e+00  4.642e+00  0.000e+00  0.000e+00  0.000e+00    0.030  258.162
 0.0042  4.64232e+00  1.173e-01  4.525e+00  0.000e+00  4.525e+00  0.000e+00  0.000e+00  0.000e+00  4.525e+00  0.000e+00  0.000e+00  0.000e+00   19.678  255.302
 0.0044  4.64185e+00  4.404e-01  4.201e+00  0.000e+00  4.201e+00  0.000e+00  0.000e+00  0.000e+00  4.201e+00  0.000e+00  0.000e+00  0.000e+00   73.865  249.359
 0.0046  4.64111e+00  9.391e-01  3.702e+00  0.000e+00  3.702e+00  0.000e+00  0.000e+00  0.000e+00  3.702e+00  0.000e+00  0.000e+00  0.000e+00  157.520  240.176
 0.0048  4.64019e+00  1.567e+00  3.073e+00  0.000e+00  3.073e+00  0.000e+00  0.000e+00  0.000e+00  3.073e+00  0.000e+00  0.000e+00  0.000e+00  262.817  227.453
 0.0050  4.63916e+00  2.265e+00  2.374e+00  0.000e+00  2.374e+00  0.000e+00  0.000e+00  0.000e+00  2.374e+00  0.000e+00  0.000e+00  0.000e+00  379.901  210.805
 0.0052  4.63812e+00  2.968e+00  1.670e+00  0.000e+00  1.670e+00  0.000e+00  0.000e+00  0.000e+00  1.670e+00  0.000e+00  0.000e+00  0.000e+00  497.818  189.832
 0.0054  4.63717e+00  3.610e+00  1.027e+00  0.000e+00  1.027e+00  0.000e+00  0.000e+00  0.000e+00  1.027e+00  0.000e+00  0.000e+00  0.000e+00  605.532  164.208
 0.0056  4.63640e+00  4.131e+00  5.052e-01  0.000e+00  5.052e-01  0.000e+00  0.000e+00  0.000e+00  5.052e-01  0.000e+00  0.000e+00  0.000e+00  692.966  133.758
 0.0058  4.63588e+00  4.483e+00  1.531e-01  0.000e+00  1.531e-01  0.000e+00  0.000e+00  0.000e+00  1.531e-01  0.000e+00  0.000e+00  0.000e+00  751.937   98.542
 0.0060  4.63566e+00  4.632e+00  3.924e-03  0.000e+00  3.924e-03  0.000e+00  0.000e+00  0.000e+00  3.924e-03  0.000e+00  0.000e+00  0.000e+00  776.928   58.910
 0.0062  4.63576e+00  4.564e+00  7.156e-02  0.000e+00  7.156e-02  0.000e+00  0.000e+00  0.000e+00  7.156e-02  0.000e+00  0.000e+00  0.000e+00  765.599   15.540
 0.0064  4.63617e+00  4.286e+00  3.497e-01  0.000e+00  3.497e-01  0.000e+00  0.000e+00  0.000e+00  3.497e-01  0.000e+00  0.000e+00  0.000e+00  719.012  -30.553
 0.0066  4.63686e+00  3.825e+00  8.123e-01  0.000e+00  8.123e-01  0.000e+00  0.000e+00  0.000e+00  8.123e-01  0.000e+00  0.000e+00  0.000e+00  641.525  -78.040
 0.0068  4.63775e+00  3.222e+00  1.416e+00  0.000e+00  1.416e+00  0.000e+00  0.000e+00  0.000e+00  1.416e+00  0.000e+00  0.000e+00  0.000e+00  540.389 -125.337
 0.0070  4.63876e+00  2.534e+00  2.105e+00  0.000e+00  2.105e+00  0.000e+00  0.000e+00  0.000e+00  2.105e+00  0.000e+00  0.000e+00  0.000e+00  425.068 -170.677
 0.0072  4.63980e+00  1.826e+00  2.813e+00  0.000e+00  2.813e+00  0.000e+00  0.000e+00  0.000e+00  2.813e+00  0.000e+00  0.000e+00  0.000e+00  306.352 -212.224
 0.0074  4.64078e+00  1.165e+00  3.476e+00  0.000e+00  3.476e+00  0.000e+00  0.000e+00  0.000e+00  3.476e+00  0.000e+00  0.000e+00  0.000e+00  195.351 -248.176
 0.0076  4.64160e+00  6.108e-01  4.031e+00  0.000e+00  4.031e+00  0.000e+00  0.000e+00  0.000e+00  4.031e+00  0.000e+00  0.000e+00  0.000e+00  102.450 -276.896
 0.0078  4.64218e+00  2.167e-01  4.426e+00  0.000e+00  4.426e+00  0.000e+00  0.000e+00  0.000e+00  4.426e+00  0.000e+00  0.000e+00  0.000e+00   36.344 -297.016
 0.0080  4.64247e+00  1.918e-02  4.623e+00  0.000e+00  4.623e+00  0.000e+00  0.000e+00  0.000e+00  4.623e+00  0.000e+00  0.000e+00  0.000e+00    3.217 -307.539
 0.0082  4.64244e+00  3.678e-02  4.606e+00  0.000e+00  4.606e+00  0.000e+00  0.000e+00  0.000e+00  4.606e+00  0.000e+00  0.000e+00  0.000e+00    6.169 -307.908
 0.0084  4.64210e+00  2.678e-01  4.374e+00  0.000e+00  4.374e+00  0.000e+00  0.000e+00  0.000e+00  4.374e+00  0.000e+00  0.000e+00  0.000e+00   44.925 -298.051
 0.0086  4.64148e+00  6.907e-01  3.951e+00  0.000e+00  3.951e+00  0.000e+00  0.000e+00  0.000e+00  3.951e+00  0.000e+00  0.000e+00  0.000e+00  115.857 -278.387
 0.0088  4.64063e+00  1.266e+00  3.375e+00  0.000e+00  3.375e+00  0.000e+00  0.000e+00  0.000e+00  3.375e+00  0.000e+00  0.000e+00  0.000e+00  212.329 -249.799
 0.0090  4.63964e+00  1.939e+00  2.700e+00  0.000e+00  2.700e+00  0.000e+00  0.000e+00  0.000e+00  2.700e+00  0.000e+00  0.000e+00  0.000e+00  325.313 -213.574
 0.0092  4.63859e+00  2.648e+00  1.990e+00  0.000e+00  1.990e+00  0.000e+00  0.000e+00  0.000e+00  1.990e+00  0.000e+00  0.000e+00  0.000e+00  444.237 -171.315
 0.0094  4.63759e+00  3.326e+00  1.311e+00  0.000e+00  1.311e+00  0.000e+00  0.000e+00  0.000e+00  1.311e+00  0.000e+00  0.000e+00  0.000e+00  557.973 -124.833
 0.0096  4.63673e+00  3.910e+00  7.266e-01  0.000e+00  7.266e-01  0.000e+00  0.000e+00  0.000e+00  7.266e-01  0.000e+00  0.000e+00  0.000e+00  655.878  -76.028
 0.0098  4.63609e+00  4.345e+00  2.913e-01  0.000e+00  2.913e-01  0.000e+00  0.000e+00  0.000e+00  2.913e-01  0.000e+00  0.000e+00  0.000e+00  728.791  -26.770
 0.0100  4.63573e+00  4.590e+00  4.594e-02  0.000e+00  4.594e-02  0.000e+00  0.000e+00  0.000e+00  4.594e-02  0.000e+00  0.000e+00  0.000e+00  769.889   21.216
 0.0102  4.63568e+00  4.622e+00  1.348e-02  0.000e+00  1.348e-02  0.000e+00  0.000e+00  0.000e+00  1.348e-02  0.000e+00  0.000e+00  0.000e+00  775.328   66.437
 0.0104  4.63595e+00  4.439e+00  1.970e-01  0.000e+00  1.970e-01  0.000e+00  0.000e+00  0.000e+00  1.970e-01  0.000e+00  0.000e+00  0.000e+00  744.596  107.709
 0.0106  4.63651e+00  4.057e+00  5.792e-01  0.000e+00  5.792e-01  0.000e+00  0.000e+00  0.000e+00  5.792e-01  0.000e+00  0.000e+00  0.000e+00  680.572  144.191
 0.0108  4.63732e+00  3.513e+00  1.124e+00  0.000e+00  1.124e+00  0.000e+00  0.000e+00  0.000e+00  1.124e+00  0.000e+00  0.000e+00  0.000e+00  589.244  175.394
 0.0110  4.63828e+00  2.857e+00  1.782e+00  0.000e+00  1.782e+00  0.000e+00  0.000e+00  0.000e+00  1.782e+00  0.000e+00  0.000e+00  0.000e+00  479.160  201.157
 0.0112  4.63933e+00  2.150e+00  2.489e+00  0.000e+00  2.489e+00  0.000e+00  0.000e+00  0.000e+00  2.489e+00  0.000e+00  0.000e+00  0.000e+00  360.620  221.599
 0.0114  4.64035e+00  1.459e+00  3.181e+00  0.000e+00  3.181e+00  0.000e+00  0.000e+00  0.000e+00  3.181e+00  0.000e+00  0.000e+00  0.000e+00  244.716  237.047
 0.0116  4.64125e+00  8.483e-01  3.793e+00  0.000e+00  3.793e+00  0.000e+00  0.000e+00  0.000e+00  3.793e+00  0.000e+00  0.000e+00  0.000e+00  142.293  247.955
 0.0118  4.64194e+00  3.752e-01  4.267e+00  0.000e+00  4.267e+00  0.000e+00  0.000e+00  0.000e+00  4.267e+00  0.000e+00  0.000e+00  0.000e+00   62.937  254.810
 0.0120  4.64237e+00  8.389e-02  4.558e+00  0.000e+00  4.558e+00  0.000e+00  0.000e+00  0.000e+00  4.558e+00  0.000e+00  0.000e+00  0.000e+00   14.071  258.062
 0.0122  4.64249e+00  1.607e-03  4.641e+00  0.000e+00  4.641e+00  0.000e+00  0.000e+00  0.000e+00  4.641e+00  0.000e+00  0.000e+00  0.000e+00    0.270  258.044
 0.0124  4.64230e+00  1.361e-01  4.506e+00  0.000e+00  4.506e+00  0.000e+00  0.000e+00  0.000e+00  4.506e+00  0.000e+00  0.000e+00  0.000e+00   22.823  254.937
 0.0126  4.64180e+00  4.747e-01  4.167e+00  0.000e+00  4.167e+00  0.000e+00  0.000e+00  0.000e+00  4.167e+00  0.000e+00  0.000e+00  0.000e+00   79.622  248.741
 0.0128  4.64104e+00  9.858e-01  3.655e+00  0.000e+00  3.655e+00  0.000e+00  0.000e+00  0.000e+00  3.655e+00  0.000e+00  0.000e+00  0.000e+00  165.350  239.284
 0.0130  4.64011e+00  1.621e+00  3.019e+00  0.000e+00  3.019e+00  0.000e+00  0.000e+00  0.000e+00  3.019e+00  0.000e+00  0.000e+00  0.000e+00  271.987  226.258
 0.0132  4.63907e+00  2.322e+00  2.317e+00  0.000e+00  2.317e+00  0.000e+00  0.000e+00  0.000e+00  2.317e+00  0.000e+00  0.000e+00  0.000e+00  389.553  209.275
 0.0134  4.63804e+00  3.023e+00  1.615e+00  0.000e+00  1.615e+00  0.000e+00  0.000e+00  0.000e+00  1.615e+00  0.000e+00  0.000e+00  0.000e+00  507.049  187.937
 0.0136  4.63710e+00  3.657e+00  9.798e-01  0.000e+00  9.798e-01  0.000e+00  0.000e+00  0.000e+00  9.798e-01  0.000e+00  0.000e+00  0.000e+00  613.478  161.926
 0.0138  4.63635e+00  4.166e+00  4.699e-01  0.000e+00  4.699e-01  0.000e+00  0.000e+00  0.000e+00  4.699e-01  0.000e+00  0.000e+00  0.000e+00  698.883  131.086
 0.0140  4.63586e+00  4.503e+00  1.332e-01  0.000e+00  1.332e-01  0.000e+00  0.000e+00  0.000e+00  1.332e-01  0.000e+00  0.000e+00  0.000e+00  755.273   95.495
 0.0142  4.63566e+00  4.634e+00  1.289e-03  0.000e+00  1.289e-03  0.000e+00  0.000e+00  0.000e+00  1.289e-03  0.000e+00  0.000e+00  0.000e+00  777.369   55.531
 0.0144  4.63579e+00  4.549e+00  8.645e-02  0.000e+00  8.645e-02  0.000e+00  0.000e+00  0.000e+00  8.645e-02  0.000e+00  0.000e+00  0.000e+00  763.105   11.899
 0.0146  4.63622e+00  4.255e+00  3.807e-01  0.000e+00  3.807e-01  0.000e+00  0.000e+00  0.000e+00  3.807e-01  0.000e+00  0.000e+00  0.000e+00  713.816  -34.360
 0.0148  4.63692e+00  3.780e+00  8.566e-01  0.000e+00  8.566e-01  0.000e+00  0.000e+00  0.000e+00  8.566e-01  0.000e+00  0.000e+00  0.000e+00  634.113  -81.894
 0.0150  4.63782e+00  3.168e+00  1.469e+00  0.000e+00  1.469e+00  0.000e+00  0.000e+00  0.000e+00  1.469e+00  0.000e+00  0.000e+00  0.000e+00  531.455 -129.099
 0.0152  4.63884e+00  2.477e+00  2.162e+00  0.000e+00  2.162e+00  0.000e+00  0.000e+00  0.000e+00  2.162e+00  0.000e+00  0.000e+00  0.000e+00  415.447 -174.202
 0.0154  4.63989e+00  1.770e+00  2.870e+00  0.000e+00  2.870e+00  0.000e+00  0.000e+00  0.000e+00  2.870e+00  0.000e+00  0.000e+00  0.000e+00  296.946 -215.361
 0.0156  4.64085e+00  1.115e+00  3.526e+00  0.000e+00  3.526e+00  0.000e+00  0.000e+00  0.000e+00  3.526e+00  0.000e+00  0.000e+00  0.000e+00  187.038 -250.787
 0.0158  4.64165e+00  5.724e-01  4.069e+00  0.000e+00  4.069e+00  0.000e+00  0.000e+00  0.000e+00  4.069e+00  0.000e+00  0.000e+00  0.000e+00   96.010 -278.858
 0.0160  4.64221e+00  1.930e-01  4.449e+00  0.000e+00  4.449e+00  0.000e+00  0.000e+00  0.000e+00  4.449e+00  0.000e+00  0.000e+00  0.000e+00   32.378 -298.234
 0.0162  4.64248e+00  1.250e-02  4.630e+00  0.000e+00  4.630e+00  0.000e+00  0.000e+00  0.000e+00  4.630e+00  0.000e+00  0.000e+00  0.000e+00    2.097 -307.950
 0.0164  4.64243e+00  4.769e-02  4.595e+00  0.000e+00  4.595e+00  0.000e+00  0.000e+00  0.000e+00  4.595e+00  0.000e+00  0.000e+00  0.000e+00    8.000 -307.488
 0.0166  4.64206e+00  2.953e-01  4.347e+00  0.000e+00  4.347e+00  0.000e+00  0.000e+00  0.000e+00  4.347e+00  0.000e+00  0.000e+00  0.000e+00   49.535 -296.816
 0.0168  4.64142e+00  7.322e-01  3.909e+00  0.000e+00  3.909e+00  0.000e+00  0.000e+00  0.000e+00  3.909e+00  0.000e+00  0.000e+00  0.000e+00  122.815 -276.392
 0.0170  4.64055e+00  1.317e+00  3.323e+00  0.000e+00  3.323e+00  0.000e+00  0.000e+00  0.000e+00  3.323e+00  0.000e+00  0.000e+00  0.000e+00  220.984 -247.134
 0.0172  4.63955e+00  1.996e+00  2.643e+00  0.000e+00  2.643e+00  0.000e+00  0.000e+00  0.000e+00  2.643e+00  0.000e+00  0.000e+00  0.000e+00  334.855 -210.359
 0.0174  4.63851e+00  2.705e+00  1.933e+00  0.000e+00  1.933e+00  0.000e+00  0.000e+00  0.000e+00  1.933e+00  0.000e+00  0.000e+00  0.000e+00  453.773 -167.689
 0.0176  4.63751e+00  3.378e+00  1.260e+00  0.000e+00  1.260e+00  0.000e+00  0.000e+00  0.000e+00  1.260e+00  0.000e+00  0.000e+00  0.000e+00  566.610 -120.948
 0.0178  4.63667e+00  3.951e+00  6.853e-01  0.000e+00  6.853e-01  0.000e+00  0.000e+00  0.000e+00  6.853e-01  0.000e+00  0.000e+00  0.000e+00  662.809  -72.038
 0.0180  4.63605e+00  4.372e+00  2.640e-01  0.000e+00  2.640e-01  0.000e+00  0.000e+00  0.000e+00  2.640e-01  0.000e+00  0.000e+00  0.000e+00  733.368  -22.821
 0.0182  4.63571e+00  4.600e+00  3.524e-02  0.000e+00  3.524e-02  0.000e+00  0.000e+00  0.000e+00  3.524e-02  0.000e+00  0.000e+00  0.000e+00  771.683   24.992
 0.0184  4.63569e+00  4.615e+00  2.039e-02  0.000e+00  2.039e-02  0.000e+00  0.000e+00  0.000e+00  2.039e-02  0.000e+00  0.000e+00  0.000e+00  774.170   69.934
 0.0186  4.63598e+00  4.415e+00  2.208e-01  0.000e+00  2.208e-01  0.000e+00  0.000e+00  0.000e+00  2.208e-01  0.000e+00  0.000e+00  0.000e+00  740.596  110.845
 0.0188  4.63657e+00  4.019e+00  6.178e-01  0.000e+00  6.178e-01  0.000e+00  0.000e+00  0.000e+00  6.178e-01  0.000e+00  0.000e+00  0.000e+00  674.103  146.914
 0.0190  4.63739e+00  3.463e+00  1.174e+00  0.000e+00  1.174e+00  0.000e+00  0.000e+00  0.000e+00  1.174e+00  0.000e+00  0.000e+00  0.000e+00  580.912  177.678
 0.0192  4.63837e+00  2.800e+00  1.838e+00  0.000e+00  1.838e+00  0.000e+00  0.000e+00  0.000e+00  1.838e+00  0.000e+00  0.000e+00  0.000e+00  469.745  203.004
 0.0194  4.63941e+00  2.093e+00  2.547e+00  0.000e+00  2.547e+00  0.000e+00  0.000e+00  0.000e+00  2.547e+00  0.000e+00  0.000e+00  0.000e+00  351.002  223.028
 0.0196  4.64042e+00  1.406e+00  3.235e+00  0.000e+00  3.235e+00  0.000e+00  0.000e+00  0.000e+00  3.235e+00  0.000e+00  0.000e+00  0.000e+00  235.796  238.091
 0.0198  4.64131e+00  8.043e-01  3.837e+00  0.000e+00  3.837e+00  0.000e+00  0.000e+00  0.000e+00  3.837e+00  0.000e+00  0.000e+00  0.000e+00  134.905  248.653
 0.0200  4.64199e+00  3.444e-01  4.298e+00  0.000e+00  4.298e+00  0.000e+00  0.000e+00  0.000e+00  4.298e+00  0.000e+00  0.000e+00  0.000e+00   57.772  255.202
 0.0202  4.64239e+00  6.924e-02  4.573e+00  0.000e+00  4.573e+00  0.000e+00  0.000e+00  0.000e+00  4.573e+00  0.000e+00  0.000e+00  0.000e+00   11.614  258.178
 0.0204  4.64249e+00  4.463e-03  4.638e+00  0.000e+00  4.638e+00  0.000e+00  0.000e+00  0.000e+00  4.638e+00  0.000e+00  0.000e+00  0.000e+00    0.749  257.907
 0.0206  4.64227e+00  1.562e-01  4.486e+00  0.000e+00  4.486e+00  0.000e+00  0.000e+00  0.000e+00  4.486e+00  0.000e+00  0.000e+00  0.000e+00   26.194  254.552
 0.0208  4.64174e+00  5.101e-01  4.132e+00  0.000e+00  4.132e+00  0.000e+00  0.000e+00  0.000e+00  4.132e+00  0.000e+00  0.000e+00  0.000e+00   85.569  248.101
 0.0210  4.64097e+00  1.033e+00  3.608e+00  0.000e+00  3.608e+00  0.000e+00  0.000e+00  0.000e+00  3.608e+00  0.000e+00  0.000e+00  0.000e+00  173.318  238.368
 0.0212  4.64002e+00  1.677e+00  2.963e+00  0.000e+00  2.963e+00  0.000e+00  0.000e+00  0.000e+00  2.963e+00  0.000e+00  0.000e+00  0.000e+00  281.229  225.038
 0.0214  4.63899e+00  2.380e+00  2.259e+00  0.000e+00  2.259e+00  0.000e+00  0.000e+00  0.000e+00  2.259e+00  0.000e+00  0.000e+00  0.000e+00  399.205  207.717
 0.0216  4.63796e+00  3.077e+00  1.561e+00  0.000e+00  1.561e+00  0.000e+00  0.000e+00  0.000e+00  1.561e+00  0.000e+00  0.000e+00  0.000e+00  516.206  186.011
 0.0218  4.63703e+00  3.704e+00  9.332e-01  0.000e+00  9.332e-01  0.000e+00  0.000e+00  0.000e+00  9.332e-01  0.000e+00  0.000e+00  0.000e+00  621.286  159.613
 0.0220  4.63630e+00  4.201e+00  4.357e-01  0.000e+00  4.357e-01  0.000e+00  0.000e+00  0.000e+00  4.357e-01  0.000e+00  0.000e+00  0.000e+00  704.610  128.382
 0.0222  4.63583e+00  4.521e+00  1.146e-01  0.000e+00  1.146e-01  0.000e+00  0.000e+00  0.000e+00  1.146e-01  0.000e+00  0.000e+00  0.000e+00  758.382   92.420
 0.0224  4.63566e+00  4.636e+00  8.386e-05  0.000e+00  8.386e-05  0.000e+00  0.000e+00  0.000e+00  8.386e-05  0.000e+00  0.000e+00  0.000e+00  777.571   52.128
 0.0226  4.63581e+00  4.533e+00  1.027e-01  0.000e+00  1.027e-01  0.000e+00  0.000e+00  0.000e+00  1.027e-01  0.000e+00  0.000e+00  0.000e+00  760.380    8.241
 0.0228  4.63627e+00  4.223e+00  4.129e-01  0.000e+00  4.129e-01  0.000e+00  0.000e+00  0.000e+00  4.129e-01  0.000e+00  0.000e+00  0.000e+00  708.419  -38.175
 0.0230  4.63699e+00  3.735e+00  9.017e-01  0.000e+00  9.017e-01  0.000e+00  0.000e+00  0.000e+00  9.017e-01  0.000e+00  0.000e+00  0.000e+00  626.550  -85.745
 0.0232  4.63790e+00  3.115e+00  1.523e+00  0.000e+00  1.523e+00  0.000e+00  0.000e+00  0.000e+00  1.523e+00  0.000e+00  0.000e+00  0.000e+00  522.432 -132.848
 0.0234  4.63893e+00  2.419e+00  2.220e+00  0.000e+00  2.220e+00  0.000e+00  0.000e+00  0.000e+00  2.220e+00  0.000e+00  0.000e+00  0.000e+00  405.810 -177.700
 0.0236  4.63997e+00  1.715e+00  2.925e+00  0.000e+00  2.925e+00  0.000e+00  0.000e+00  0.000e+00  2.925e+00  0.000e+00  0.000e+00  0.000e+00  287.595 -218.461
 0.0238  4.64092e+00  1.066e+00  3.575e+00  0.000e+00  3.575e+00  0.000e+00  0.000e+00  0.000e+00  3.575e+00  0.000e+00  0.000e+00  0.000e+00  178.850 -253.350
 0.0240  4.64171e+00  5.351e-01  4.107e+00  0.000e+00  4.107e+00  0.000e+00  0.000e+00  0.000e+00  4.107e+00  0.000e+00  0.000e+00  0.000e+00   89.750 -280.763
 0.0242  4.64225e+00  1.707e-01  4.472e+00  0.000e+00  4.472e+00  0.000e+00  0.000e+00  0.000e+00  4.472e+00  0.000e+00  0.000e+00  0.000e+00   28.631 -299.388
 0.0244  4.64249e+00  7.242e-03  4.635e+00  0.000e+00  4.635e+00  0.000e+00  0.000e+00  0.000e+00  4.635e+00  0.000e+00  0.000e+00  0.000e+00    1.215 -308.294
